A                   h(A)       Phi(A)              A(Phi(A))    A-Af
0.0144764589477418   0.0960000000000000 1.0185883082940288  1.561251e-17 -1.447646e-02   
0.0217146884216127   0.1347813843167535 1.1901671609479907  3.157197e-13 -7.238229e-03   
0.0253338031585481   0.1569316410217146 1.2702357010664300  -1.926157e-12 -3.619115e-03   
0.0271433605270158   0.1702454266622715 1.3117788487624928  -2.581532e-12 -1.809557e-03   
0.0280481392112497   0.1784191527722608 1.3342216168736818  2.375281e-12 -9.047787e-04   
0.0285005285533666   0.1834914591570467 1.3465720946628190  -2.157892e-12 -4.523893e-04   
0.0287267232244251   0.1866580348885459 1.3534313168731633  4.001771e-12 -2.261947e-04   
0.0288398205599543   0.1886418247539403 1.3572589564801740  -5.204424e-12 -1.130973e-04   
0.0288963692277189   0.1898872508051330 1.3594003118069788  -2.374698e-13 -5.654867e-05   
0.0289246435616012   0.1906701428011383 1.3605999404792013  6.169471e-12 -2.827433e-05   
0.0289387807285424   0.1911626737644098 1.3612725115268556  2.295331e-12 -1.413717e-05   
0.0289458493120130   0.1914726882370871 1.3616497513319989  -3.932955e-12 -7.068583e-06   
0.0289493836037482   0.1916678820398939 1.3618613946474305  -5.889757e-12 -3.534292e-06   
0.0289511507496159   0.1917908056084400 1.3619801502532298  -3.964752e-12 -1.767146e-06   
0.0289520343225497   0.1918682264250123 1.3620467910794407  -8.825093e-13 -8.835729e-07   
0.0289524761090166   0.1919169920677831 1.3620841890776467  1.551342e-12 -4.417865e-07   
0.0289526970022501   0.1919477099530268 1.3621051769939510  2.843593e-12 -2.208932e-07   
0.0289528074488668   0.1919670599986112 1.3621169557147532  3.199722e-12 -1.104466e-07   
0.0289528626721752   0.1919792493629349 1.3621235661754285  2.996464e-12 -5.522331e-08   
0.0289528902838294   0.1919869280223448 1.3621272761276355  2.544132e-12 -2.761165e-08   
0.0289529040896564   0.1919917652115880 1.3621293582527529  2.035278e-12 -1.380583e-08   
0.0289529109925700   0.1919948124248348 1.3621305268009183  1.566795e-12 -6.902914e-09   
0.0289529144440268   0.1920016186884319 1.3621333434242102  0.000000e+00 -3.451457e-09   
0.0289529161697551   0.1920024945117838 1.3621340586799808  0.000000e+00 -1.725728e-09   
0.0289529170326193   0.1920029324234598 1.3621344163078561  -3.469447e-18 -8.628642e-10   
0.0289529174640514   0.1920031513792987 1.3621345951217940  0.000000e+00 -4.314321e-10   
0.0289529176797675   0.1920032608572163 1.3621346845287601  -3.469447e-18 -2.157160e-10   
0.0289529177876255   0.1920033155961760 1.3621347292322432  -3.469447e-18 -1.078580e-10   
0.0289529178415545   0.1920033429656568 1.3621347515839861  0.000000e+00 -5.392901e-11   
0.0289529178685190   0.1920033566503954 1.3621347627598575  3.469447e-18 -2.696451e-11   
0.0289529178820013   0.1920033634927656 1.3621347683477931  3.469447e-18 -1.348225e-11   
0.0289529178887424   0.1920033669139515 1.3621347711417611  0.000000e+00 -6.741125e-12   
0.0289529178921130   0.1920033686245428 1.3621347725387449  3.469447e-18 -3.370564e-12   
0.0289529178937983   0.1920033694798401 1.3621347732372384  3.469447e-18 -1.685280e-12   
0.0289529178946409   0.1920033699074871 1.3621347735864808  0.000000e+00 -8.426419e-13   
0.0289529178950622   0.1920033701213123 1.3621347737611063  3.469447e-18 -4.213192e-13   
0.0289529178952729   0.1920033702282231 1.3621347738484175  3.469447e-18 -2.106613e-13   
0.0289529178953782   0.1920033702816803 1.3621347738920733  0.000000e+00 -1.053289e-13   
0.0289529178954309   0.1920033703084072 1.3621347739138998  0.000000e+00 -5.266620e-14   
0.0289529178954572   0.1920033703217714 1.3621347739248157  3.469447e-18 -2.633310e-14   
0.0434293768432253   7.5389421458453398 6.7560116873338645  -6.938894e-18 1.447646e-02   
0.0361911473693544   3.8654727580902368 4.1949505039332005  -6.938894e-18 7.238229e-03   
0.0325720326324190   2.0287380642126855 2.8179788966514403  6.938894e-18 3.619115e-03   
0.0307624752639513   1.1103707172739115 2.1007685276416912  0.000000e+00 1.809557e-03   
0.0298576965797174   0.6511870438045226 1.7342499878436106  3.469447e-18 9.047787e-04   
0.0294053072376005   0.4215952070698292 1.5489080188313766  0.000000e+00 4.523893e-04   
0.0291791125665420   0.3067992887024825 1.4557023802492435  0.000000e+00 2.261947e-04   
0.0290660152310128   0.2494013295188091 1.4089640867578259  3.469447e-18 1.130973e-04   
0.0290094665632482   0.2207023499269733 1.3855608410061795  3.469447e-18 5.654867e-05   
0.0289811922293658   0.2063528601310545 1.3738506643089106  0.000000e+00 2.827433e-05   
0.0289670550624247   0.1991781152330943 1.3679934338545614  3.469447e-18 1.413717e-05   
0.0289599864789541   0.1955907427841150 1.3650642826436190  3.469447e-18 7.068583e-06   
0.0289564521872188   0.1937970565596254 1.3635995729849728  0.000000e+00 3.534292e-06   
0.0289546850413512   0.1929002134473806 1.3628671846351992  0.000000e+00 1.767146e-06   
0.0289538014684174   0.1924517918912582 1.3625009820793026  -3.469447e-18 8.835729e-07   
0.0289533596819504   0.1922275811131978 1.3623178787059924  0.000000e+00 4.417865e-07   
0.0289531387887170   0.1921154757241659 1.3622263264954806  0.000000e+00 2.208932e-07   
0.0289530283421003   0.1920594230296508 1.3621805502592603  0.000000e+00 1.104466e-07   
0.0289529731187919   0.1920313966823933 1.3621576621084079  -3.469447e-18 5.522331e-08   
0.0289529455071377   0.1920173835087645 1.3621462180247974  0.000000e+00 2.761165e-08   
0.0289529317013106   0.1920103769219510 1.3621404959809471  3.469447e-18 1.380583e-08   
0.0289529247983971   0.1920068736285434 1.3621376349585077  0.000000e+00 6.902914e-09   
0.0289529213469403   0.1920051219818396 1.3621362044471614  0.000000e+00 3.451457e-09   
0.0289529196212119   0.1920042461584877 1.3621354891914550  0.000000e+00 1.725728e-09   
0.0289529187583477   0.1920038082468117 1.3621351315635932  -3.469447e-18 8.628642e-10   
0.0289529183269156   0.1920035892909728 1.3621349527496611  -3.469447e-18 4.314321e-10   
0.0289529181111996   0.1920034798130552 1.3621348633426951  -3.469447e-18 2.157160e-10   
0.0289529180033416   0.1920034250740955 1.3621348186392119  0.000000e+00 1.078580e-10   
0.0289529179494125   0.1920033977046147 1.3621347962874690  0.000000e+00 5.392901e-11   
0.0289529179224480   0.1920033840198761 1.3621347851116004  3.469447e-18 2.696451e-11   
0.0289529179089658   0.1920033771775059 1.3621347795236647  3.469447e-18 1.348225e-11   
0.0289529179022247   0.1920033737563200 1.3621347767296967  3.469447e-18 6.741125e-12   
0.0289529178988541   0.1920033720457287 1.3621347753327129  0.000000e+00 3.370564e-12   
0.0289529178971688   0.1920033711904314 1.3621347746342196  0.000000e+00 1.685280e-12   
0.0289529178963262   0.1920033707627844 1.3621347742849743  0.000000e+00 8.426419e-13   
0.0289529178959049   0.1920033705489592 1.3621347741103516  3.469447e-18 4.213192e-13   
0.0289529178956942   0.1920033704420483 1.3621347740230403  0.000000e+00 2.106613e-13   
0.0289529178955889   0.1920033703885912 1.3621347739793845  3.469447e-18 1.053289e-13   
0.0289529178955362   0.1920033703618644 1.3621347739575553  -3.469447e-18 5.266620e-14   
0.0289529178955099   0.1920033703485000 1.3621347739466421  -3.469447e-18 2.633310e-14   
